Data from kielMoonTest_AbsoluteIrradiance__5__05.txt Node

Date: Fri Jul 22 16:51:01 EDT 2022
User: enochs
Spectrometer: FLMS17410
Trigger mode: 0
Integration Time (sec): 1.667200E-1
Scans to average: 5
Electric dark correction enabled: true
Nonlinearity correction enabled: true
Boxcar width: 5
XAxis mode: Wavelengths
Number of Pixels in Spectrum: 2048
>>>>>Begin Spectral Data<<<<<
179.501	-0
179.881	-0
180.261	-0
180.64	-0
181.02	-0
181.399	-0
181.779	-0
182.158	-0
182.537	-0
182.917	-0
183.296	-0
183.675	-0
184.055	-0
184.434	-0
184.813	-0
185.192	-0
185.571	0
185.95	0
186.329	-0
186.708	-0
187.087	0
187.466	0
187.845	0
188.224	0
188.603	0
188.982	0
189.361	0
189.739	0
190.118	0
190.497	0
190.875	0
191.254	0
191.632	0
192.011	0
192.39	0
192.768	0
193.146	0
193.525	0
193.903	0
194.282	0
194.66	0
195.038	0
195.416	0
195.794	0
196.173	0
196.551	0
196.929	0
197.307	0
197.685	0
198.063	0
198.441	0
198.819	0
199.197	0
199.575	0
199.952	0
200.33	1.13
200.708	0.58
201.086	0.62
201.463	0.83
201.841	1.25
202.218	1.4
202.596	0.93
202.974	0.75
203.351	0.61
203.729	0.48
204.106	0.19
204.483	0.59
204.861	0.88
205.238	0.79
205.615	0.65
205.993	0.4
206.37	0.37
206.747	0.27
207.124	0.14
207.501	0.21
207.878	0.12
208.255	0.3
208.632	0.23
209.009	0.13
209.386	0.13
209.763	0.24
210.14	0.18
210.517	0.15
210.894	0.15
211.271	0.22
211.647	0.23
212.024	0.24
212.401	0.23
212.777	0.16
213.154	0.21
213.531	0.2
213.907	0.2
214.284	0.29
214.66	0.34
215.036	0.34
215.413	0.28
215.789	0.26
216.166	0.22
216.542	0.14
216.918	0.11
217.294	0.03
217.67	0.1
218.047	0.06
218.423	0.03
218.799	0.03
219.175	-0.01
219.551	0.06
219.927	0.08
220.303	0.09
220.679	0.1
221.054	0.09
221.43	0.18
221.806	0.1
222.182	0.13
222.558	0.15
222.933	0.12
223.309	0.16
223.685	0.12
224.06	0.12
224.436	0.12
224.811	0.14
225.187	0.15
225.562	0.12
225.938	0.17
226.313	0.14
226.688	0.09
227.064	0.08
227.439	0.06
227.814	0.05
228.189	0.04
228.564	0.03
228.94	0.02
229.315	0.03
229.69	0.04
230.065	0.05
230.44	0.05
230.815	0.08
231.19	0.1
231.564	0.11
231.939	0.1
232.314	0.09
232.689	0.11
233.064	0.11
233.438	0.1
233.813	0.07
234.188	0.03
234.562	0.01
234.937	-0
235.311	-0.01
235.686	0.01
236.06	0.02
236.435	0
236.809	-0.01
237.183	-0.01
237.558	-0.02
237.932	0
238.306	0.01
238.68	0.03
239.055	0.04
239.429	0.04
239.803	0.03
240.177	0.03
240.551	0.03
240.925	0.04
241.299	0.05
241.673	0.07
242.047	0.06
242.42	0.06
242.794	0.07
243.168	0.06
243.542	0.05
243.915	0.05
244.289	0.06
244.663	0.04
245.036	0.05
245.41	0.04
245.783	0.03
246.157	0.02
246.53	0.01
246.904	0.02
247.277	0.02
247.651	0.02
248.024	0.01
248.397	0
248.77	0.02
249.144	0.01
249.517	0.02
249.89	0.02
250.263	0.02
250.636	0.02
251.009	0.01
251.382	0.01
251.755	-0
252.128	0
252.501	-0
252.874	-0
253.246	-0
253.619	-0.01
253.992	-0
254.365	0.01
254.737	0.02
255.11	0.02
255.483	0.01
255.855	0.01
256.228	0.02
256.6	0.02
256.973	0.03
257.345	0.02
257.717	0.02
258.09	0.01
258.462	0
258.834	0
259.206	0
259.579	0.01
259.951	0.02
260.323	0.02
260.695	0.01
261.067	0.01
261.439	0.01
261.811	0.01
262.183	0.01
262.555	0.01
262.927	0.01
263.299	0.01
263.67	0.01
264.042	0.01
264.414	0.01
264.786	0.02
265.157	0.01
265.529	0.01
265.9	0.01
266.272	0.02
266.643	0.02
267.015	0.02
267.386	0.01
267.758	0.02
268.129	-0.01
268.5	-0.01
268.872	-0.02
269.243	-0.01
269.614	-0.01
269.985	-0.01
270.357	-0.02
270.728	-0.02
271.099	-0.02
271.47	-0.02
271.841	-0.02
272.212	0.01
272.583	0.01
272.953	0.01
273.324	0.01
273.695	0.01
274.066	0.01
274.437	-0
274.807	0.01
275.178	-0
275.549	0
275.919	-0.01
276.29	-0.01
276.66	-0.01
277.031	-0.02
277.401	-0.02
277.772	-0.02
278.142	-0.02
278.512	-0.01
278.883	-0.01
279.253	-0.01
279.623	-0.01
279.993	0
280.364	0
280.734	0
281.104	0
281.474	0.01
281.844	0.01
282.214	0.01
282.584	0
282.954	0
283.323	-0
283.693	0
284.063	-0
284.433	0
284.802	0
285.172	0.01
285.542	0.01
285.911	0
286.281	0
286.65	0
287.02	0
287.389	0
287.759	-0
288.128	-0
288.498	-0.01
288.867	-0.01
289.236	-0.01
289.605	-0
289.975	-0
290.344	-0
290.713	-0
291.082	-0
291.451	0
291.82	0
292.189	0
292.558	0.01
292.927	0.01
293.296	0
293.664	0
294.033	0
294.402	0
294.771	-0
295.139	-0
295.508	-0
295.877	0
296.245	0
296.614	-0
296.982	0
297.351	0
297.719	0
298.087	0.01
298.456	0.01
298.824	0.01
299.192	0.01
299.561	0.01
299.929	0.01
300.297	0.01
300.665	0.01
301.033	0.01
301.401	0.01
301.769	0.01
302.137	0
302.505	0
302.873	0
303.241	0.01
303.609	0.01
303.976	0.01
304.344	0.01
304.712	0.01
305.079	0.01
305.447	0.01
305.815	0.01
306.182	0.01
306.55	0.01
306.917	0.01
307.285	0.01
307.652	0.01
308.019	0.01
308.387	0.01
308.754	0.01
309.121	0.01
309.489	0.01
309.856	0.01
310.223	0.01
310.59	0.01
310.957	0.01
311.324	0.01
311.691	0.01
312.058	0.01
312.425	0.01
312.792	0.01
313.159	0.02
313.525	0.02
313.892	0.01
314.259	0.01
314.626	0.01
314.992	0.01
315.359	0.01
315.725	0.01
316.092	0.01
316.459	0
316.825	0.01
317.191	0
317.558	0
317.924	0.01
318.29	0
318.657	0
319.023	0
319.389	0.01
319.755	0.01
320.121	0.01
320.488	0.01
320.854	0.01
321.22	0.01
321.586	0
321.952	0
322.317	0.01
322.683	0.01
323.049	0.01
323.415	0.01
323.781	0.01
324.146	0.01
324.512	0.01
324.878	0.01
325.243	0.01
325.609	0.01
325.974	0.01
326.34	0.01
326.705	0.01
327.071	0.01
327.436	0
327.801	0
328.167	0
328.532	0
328.897	0.01
329.262	0.01
329.627	0.01
329.992	0.01
330.357	0.01
330.722	0.01
331.087	0.01
331.452	0.01
331.817	0.01
332.182	0.01
332.547	0.01
332.912	0.01
333.277	0.01
333.641	0.01
334.006	0.01
334.371	0.01
334.735	0.01
335.1	0.01
335.464	0
335.829	0
336.193	0
336.558	0
336.922	-0
337.286	-0
337.651	0
338.015	0
338.379	0
338.743	0
339.107	0
339.471	0
339.836	0
340.2	0
340.564	0
340.927	0
341.291	0
341.655	0
342.019	0
342.383	0
342.747	-0
343.11	-0
343.474	-0
343.838	-0
344.201	-0
344.565	-0
344.928	0
345.292	0
345.655	0
346.019	0
346.382	0
346.745	0
347.109	0
347.472	0.01
347.835	0
348.198	0.01
348.561	0
348.925	0.01
349.288	0.01
349.651	0.01
350.014	0.01
350.377	0.01
350.739	0
351.102	0
351.465	0
351.828	0
352.191	0
352.553	0
352.916	0
353.279	0
353.641	0
354.004	0
354.366	0
354.729	0
355.091	0
355.454	0
355.816	0.01
356.178	0
356.541	0
356.903	0
357.265	0
357.627	0
357.989	0
358.351	0
358.714	0
359.076	0
359.437	0.01
359.799	0.01
360.161	0.01
360.523	0.01
360.885	0.01
361.247	0.01
361.608	0.01
361.97	0.01
362.332	0.01
362.693	0.01
363.055	0
363.417	0
363.778	0
364.14	0.01
364.501	0.01
364.862	0.01
365.224	0.01
365.585	0
365.946	0
366.307	0
366.669	0
367.03	0
367.391	0
367.752	0
368.113	0
368.474	0
368.835	0
369.196	0
369.557	0
369.918	0
370.278	0
370.639	0
371	0.01
371.361	0
371.721	0.01
372.082	0
372.442	0
372.803	0
373.163	0
373.524	0
373.884	0
374.245	0
374.605	0
374.965	-0
375.325	-0
375.686	-0
376.046	-0
376.406	-0
376.766	-0
377.126	-0
377.486	-0
377.846	-0
378.206	-0
378.566	-0
378.926	-0
379.285	-0
379.645	-0
380.005	-0
380.365	-0
380.724	-0
381.084	0
381.443	0
381.803	0.01
382.163	0
382.522	0.01
382.881	0.01
383.241	0.01
383.6	0.01
383.959	0.01
384.319	0.01
384.678	0
385.037	0
385.396	0
385.755	0
386.114	0
386.473	0
386.832	0
387.191	0
387.55	0
387.909	0
388.268	0
388.627	0
388.985	0.01
389.344	0.01
389.703	0
390.061	0
390.42	0
390.778	0
391.137	0
391.495	0
391.854	0
392.212	0
392.57	0
392.929	0
393.287	0.01
393.645	0.01
394.003	0.01
394.362	0.01
394.72	0.01
395.078	0.01
395.436	0
395.794	0
396.152	0
396.51	0
396.867	0
397.225	0.01
397.583	0.01
397.941	0.01
398.298	0.01
398.656	0.01
399.014	0.01
399.371	0.01
399.729	0.01
400.086	0.01
400.444	0.01
400.801	0.01
401.159	0.01
401.516	0.01
401.873	0.01
402.23	0.01
402.588	0.01
402.945	0.01
403.302	0.01
403.659	0.01
404.016	0.01
404.373	0.01
404.73	0.01
405.087	0.01
405.444	0.02
405.801	0.03
406.158	0.06
406.514	0.09
406.871	0.13
407.228	0.15
407.584	0.17
407.941	0.18
408.298	0.18
408.654	0.19
409.011	0.19
409.367	0.19
409.723	0.19
410.08	0.16
410.436	0.13
410.792	0.1
411.149	0.07
411.505	0.06
411.861	0.05
412.217	0.05
412.573	0.04
412.929	0.04
413.285	0.04
413.641	0.04
413.997	0.04
414.353	0.04
414.709	0.04
415.065	0.04
415.42	0.04
415.776	0.05
416.132	0.05
416.487	0.05
416.843	0.05
417.199	0.05
417.554	0.05
417.91	0.05
418.265	0.05
418.62	0.06
418.976	0.06
419.331	0.06
419.686	0.06
420.042	0.06
420.397	0.07
420.752	0.07
421.107	0.07
421.462	0.07
421.817	0.08
422.172	0.08
422.527	0.08
422.882	0.08
423.237	0.09
423.592	0.09
423.946	0.09
424.301	0.1
424.656	0.1
425.01	0.1
425.365	0.11
425.72	0.11
426.074	0.11
426.429	0.12
426.783	0.12
427.137	0.12
427.492	0.12
427.846	0.13
428.2	0.13
428.555	0.13
428.909	0.14
429.263	0.14
429.617	0.14
429.971	0.14
430.325	0.15
430.679	0.15
431.033	0.15
431.387	0.16
431.741	0.16
432.095	0.16
432.449	0.17
432.802	0.17
433.156	0.18
433.51	0.18
433.863	0.19
434.217	0.19
434.571	0.2
434.924	0.21
435.278	0.22
435.631	0.22
435.984	0.23
436.338	0.25
436.691	0.27
437.044	0.33
437.397	0.44
437.751	0.58
438.104	0.7
438.457	0.79
438.81	0.85
439.163	0.89
439.516	0.92
439.869	0.94
440.222	0.95
440.575	0.95
440.927	0.92
441.28	0.83
441.633	0.72
441.986	0.62
442.338	0.56
442.691	0.53
443.043	0.51
443.396	0.51
443.748	0.51
444.101	0.53
444.453	0.54
444.805	0.56
445.158	0.58
445.51	0.61
445.862	0.63
446.214	0.66
446.567	0.68
446.919	0.71
447.271	0.73
447.623	0.76
447.975	0.78
448.327	0.81
448.679	0.83
449.03	0.86
449.382	0.89
449.734	0.91
450.086	0.93
450.437	0.96
450.789	0.98
451.141	1
451.492	1.02
451.844	1.03
452.195	1.04
452.547	1.05
452.898	1.06
453.249	1.06
453.601	1.06
453.952	1.06
454.303	1.05
454.654	1.04
455.005	1.03
455.357	1.01
455.708	0.99
456.059	0.97
456.41	0.96
456.76	0.93
457.111	0.91
457.462	0.88
457.813	0.85
458.164	0.83
458.515	0.8
458.865	0.77
459.216	0.75
459.566	0.72
459.917	0.69
460.267	0.67
460.618	0.64
460.968	0.62
461.319	0.6
461.669	0.58
462.019	0.56
462.37	0.54
462.72	0.52
463.07	0.51
463.42	0.5
463.77	0.48
464.12	0.47
464.47	0.46
464.82	0.45
465.17	0.44
465.52	0.43
465.87	0.42
466.22	0.41
466.569	0.41
466.919	0.4
467.269	0.39
467.618	0.38
467.968	0.38
468.318	0.37
468.667	0.36
469.017	0.36
469.366	0.35
469.715	0.35
470.065	0.34
470.414	0.33
470.763	0.32
471.112	0.32
471.462	0.31
471.811	0.3
472.16	0.3
472.509	0.29
472.858	0.29
473.207	0.28
473.556	0.28
473.905	0.27
474.253	0.26
474.602	0.26
474.951	0.26
475.3	0.25
475.648	0.25
475.997	0.24
476.345	0.24
476.694	0.24
477.042	0.23
477.391	0.23
477.739	0.23
478.088	0.23
478.436	0.22
478.784	0.22
479.132	0.22
479.481	0.22
479.829	0.22
480.177	0.21
480.525	0.21
480.873	0.21
481.221	0.21
481.569	0.21
481.917	0.21
482.265	0.2
482.612	0.2
482.96	0.2
483.308	0.2
483.656	0.2
484.003	0.21
484.351	0.21
484.698	0.21
485.046	0.21
485.393	0.22
485.741	0.23
486.088	0.24
486.435	0.25
486.783	0.26
487.13	0.27
487.477	0.29
487.824	0.31
488.171	0.32
488.518	0.34
488.866	0.36
489.212	0.38
489.559	0.39
489.906	0.4
490.253	0.41
490.6	0.42
490.947	0.42
491.294	0.42
491.64	0.42
491.987	0.42
492.333	0.41
492.68	0.4
493.027	0.39
493.373	0.38
493.719	0.37
494.066	0.36
494.412	0.35
494.759	0.34
495.105	0.33
495.451	0.32
495.797	0.31
496.143	0.3
496.489	0.29
496.835	0.29
497.181	0.28
497.527	0.27
497.873	0.26
498.219	0.25
498.565	0.24
498.911	0.24
499.257	0.23
499.602	0.22
499.948	0.22
500.294	0.21
500.639	0.2
500.985	0.2
501.33	0.19
501.676	0.18
502.021	0.18
502.366	0.17
502.712	0.16
503.057	0.16
503.402	0.15
503.747	0.14
504.092	0.14
504.438	0.13
504.783	0.13
505.128	0.12
505.473	0.12
505.817	0.12
506.162	0.11
506.507	0.11
506.852	0.11
507.197	0.1
507.541	0.1
507.886	0.1
508.231	0.09
508.575	0.09
508.92	0.09
509.264	0.09
509.609	0.09
509.953	0.09
510.297	0.08
510.642	0.08
510.986	0.08
511.33	0.08
511.674	0.08
512.019	0.08
512.363	0.08
512.707	0.08
513.051	0.08
513.395	0.08
513.739	0.08
514.083	0.08
514.426	0.08
514.77	0.08
515.114	0.08
515.458	0.08
515.801	0.08
516.145	0.08
516.488	0.08
516.832	0.08
517.175	0.08
517.519	0.08
517.862	0.08
518.206	0.08
518.549	0.08
518.892	0.08
519.235	0.08
519.579	0.08
519.922	0.08
520.265	0.08
520.608	0.07
520.951	0.08
521.294	0.08
521.637	0.08
521.98	0.08
522.323	0.08
522.665	0.08
523.008	0.08
523.351	0.08
523.693	0.08
524.036	0.08
524.379	0.08
524.721	0.08
525.064	0.08
525.406	0.08
525.748	0.08
526.091	0.08
526.433	0.08
526.775	0.08
527.118	0.08
527.46	0.08
527.802	0.08
528.144	0.08
528.486	0.08
528.828	0.08
529.17	0.08
529.512	0.08
529.854	0.08
530.195	0.08
530.537	0.08
530.879	0.08
531.221	0.08
531.562	0.08
531.904	0.08
532.245	0.08
532.587	0.08
532.928	0.08
533.27	0.08
533.611	0.08
533.953	0.08
534.294	0.08
534.635	0.08
534.976	0.09
535.317	0.09
535.659	0.09
536	0.1
536.341	0.1
536.682	0.1
537.023	0.11
537.363	0.11
537.704	0.11
538.045	0.12
538.386	0.12
538.727	0.13
539.067	0.13
539.408	0.14
539.748	0.16
540.089	0.17
540.429	0.19
540.77	0.21
541.11	0.24
541.451	0.27
541.791	0.3
542.131	0.35
542.471	0.41
542.812	0.49
543.152	0.59
543.492	0.71
543.832	0.83
544.172	0.95
544.512	1.07
544.852	1.18
545.192	1.28
545.531	1.38
545.871	1.46
546.211	1.53
546.551	1.57
546.89	1.59
547.23	1.63
547.57	1.69
547.909	1.77
548.248	1.83
548.588	1.87
548.927	1.88
549.267	1.87
549.606	1.85
549.945	1.82
550.284	1.78
550.623	1.73
550.963	1.64
551.302	1.5
551.641	1.34
551.98	1.19
552.319	1.07
552.657	0.96
552.996	0.88
553.335	0.8
553.674	0.73
554.013	0.67
554.351	0.61
554.69	0.56
555.028	0.52
555.367	0.48
555.705	0.44
556.044	0.41
556.382	0.38
556.721	0.35
557.059	0.32
557.397	0.3
557.735	0.27
558.074	0.25
558.412	0.23
558.75	0.21
559.088	0.2
559.426	0.18
559.764	0.17
560.102	0.16
560.439	0.15
560.777	0.14
561.115	0.14
561.453	0.13
561.79	0.13
562.128	0.12
562.466	0.12
562.803	0.12
563.141	0.11
563.478	0.11
563.816	0.11
564.153	0.11
564.49	0.1
564.827	0.1
565.165	0.1
565.502	0.1
565.839	0.1
566.176	0.1
566.513	0.09
566.85	0.09
567.187	0.09
567.524	0.09
567.861	0.09
568.198	0.09
568.534	0.09
568.871	0.09
569.208	0.09
569.544	0.09
569.881	0.08
570.218	0.09
570.554	0.09
570.891	0.08
571.227	0.08
571.563	0.08
571.9	0.08
572.236	0.08
572.572	0.08
572.908	0.08
573.244	0.08
573.581	0.08
573.917	0.08
574.253	0.08
574.588	0.08
574.924	0.08
575.26	0.08
575.596	0.08
575.932	0.08
576.268	0.08
576.603	0.08
576.939	0.08
577.274	0.08
577.61	0.09
577.946	0.09
578.281	0.1
578.616	0.12
578.952	0.14
579.287	0.16
579.622	0.17
579.958	0.19
580.293	0.21
580.628	0.23
580.963	0.25
581.298	0.28
581.633	0.29
581.968	0.3
582.303	0.31
582.638	0.31
582.973	0.31
583.307	0.32
583.642	0.32
583.977	0.33
584.311	0.33
584.646	0.33
584.98	0.33
585.315	0.34
585.649	0.35
585.984	0.36
586.318	0.37
586.652	0.37
586.987	0.38
587.321	0.39
587.655	0.4
587.989	0.4
588.323	0.4
588.657	0.41
588.991	0.42
589.325	0.43
589.659	0.43
589.993	0.43
590.327	0.44
590.661	0.43
590.994	0.43
591.328	0.42
591.662	0.42
591.995	0.41
592.329	0.39
592.662	0.37
592.996	0.35
593.329	0.33
593.662	0.32
593.996	0.31
594.329	0.31
594.662	0.31
594.995	0.32
595.328	0.33
595.661	0.33
595.994	0.34
596.327	0.34
596.66	0.33
596.993	0.33
597.326	0.33
597.659	0.32
597.992	0.3
598.324	0.29
598.657	0.27
598.99	0.25
599.322	0.23
599.655	0.22
599.987	0.21
600.32	0.21
600.652	0.21
600.984	0.21
601.317	0.21
601.649	0.22
601.981	0.23
602.313	0.23
602.645	0.23
602.977	0.24
603.309	0.24
603.641	0.24
603.973	0.23
604.305	0.23
604.637	0.22
604.969	0.2
605.3	0.19
605.632	0.18
605.964	0.17
606.295	0.17
606.627	0.16
606.958	0.16
607.29	0.15
607.621	0.15
607.952	0.15
608.284	0.15
608.615	0.16
608.946	0.16
609.277	0.17
609.609	0.17
609.94	0.18
610.271	0.19
610.602	0.21
610.933	0.23
611.263	0.25
611.594	0.29
611.925	0.35
612.256	0.45
612.587	0.61
612.917	0.82
613.248	1.05
613.578	1.27
613.909	1.46
614.239	1.63
614.57	1.76
614.9	1.87
615.23	1.96
615.561	2.01
615.891	2.01
616.221	1.94
616.551	1.8
616.881	1.63
617.211	1.47
617.541	1.31
617.871	1.18
618.201	1.06
618.531	0.96
618.861	0.86
619.191	0.78
619.52	0.7
619.85	0.63
620.18	0.57
620.509	0.51
620.839	0.47
621.168	0.43
621.498	0.4
621.827	0.38
622.157	0.36
622.486	0.35
622.815	0.34
623.144	0.34
623.473	0.33
623.803	0.33
624.132	0.34
624.461	0.34
624.79	0.34
625.119	0.34
625.447	0.34
625.776	0.35
626.105	0.35
626.434	0.35
626.762	0.35
627.091	0.35
627.42	0.35
627.748	0.35
628.077	0.35
628.405	0.35
628.734	0.35
629.062	0.35
629.39	0.34
629.719	0.34
630.047	0.33
630.375	0.33
630.703	0.32
631.031	0.32
631.359	0.32
631.687	0.31
632.015	0.32
632.343	0.33
632.671	0.34
632.999	0.35
633.326	0.36
633.654	0.37
633.982	0.37
634.309	0.37
634.637	0.37
634.964	0.36
635.292	0.35
635.619	0.33
635.947	0.31
636.274	0.28
636.601	0.25
636.928	0.22
637.256	0.2
637.583	0.18
637.91	0.16
638.237	0.15
638.564	0.14
638.891	0.13
639.218	0.12
639.544	0.12
639.871	0.12
640.198	0.11
640.525	0.11
640.851	0.11
641.178	0.11
641.504	0.11
641.831	0.11
642.157	0.11
642.484	0.11
642.81	0.11
643.137	0.1
643.463	0.1
643.789	0.1
644.115	0.1
644.441	0.1
644.767	0.11
645.093	0.11
645.419	0.11
645.745	0.11
646.071	0.11
646.397	0.11
646.723	0.11
647.049	0.11
647.374	0.11
647.7	0.11
648.026	0.11
648.351	0.11
648.677	0.11
649.002	0.11
649.328	0.11
649.653	0.11
649.978	0.11
650.303	0.11
650.629	0.11
650.954	0.11
651.279	0.12
651.604	0.12
651.929	0.13
652.254	0.13
652.579	0.14
652.904	0.15
653.229	0.15
653.554	0.16
653.878	0.16
654.203	0.17
654.528	0.17
654.852	0.17
655.177	0.17
655.501	0.17
655.826	0.16
656.15	0.15
656.474	0.15
656.799	0.14
657.123	0.14
657.447	0.14
657.771	0.13
658.096	0.13
658.42	0.13
658.744	0.12
659.068	0.12
659.392	0.12
659.715	0.12
660.039	0.12
660.363	0.12
660.687	0.12
661.01	0.12
661.334	0.12
661.658	0.12
661.981	0.12
662.305	0.11
662.628	0.11
662.952	0.11
663.275	0.11
663.598	0.11
663.921	0.11
664.245	0.12
664.568	0.12
664.891	0.12
665.214	0.13
665.537	0.13
665.86	0.13
666.183	0.13
666.506	0.13
666.828	0.13
667.151	0.13
667.474	0.12
667.797	0.12
668.119	0.12
668.442	0.11
668.764	0.11
669.087	0.1
669.409	0.1
669.732	0.1
670.054	0.1
670.376	0.09
670.698	0.09
671.021	0.09
671.343	0.09
671.665	0.09
671.987	0.09
672.309	0.09
672.631	0.08
672.953	0.08
673.275	0.08
673.596	0.08
673.918	0.08
674.24	0.08
674.561	0.08
674.883	0.08
675.205	0.08
675.526	0.07
675.848	0.07
676.169	0.07
676.49	0.07
676.812	0.07
677.133	0.07
677.454	0.07
677.775	0.07
678.096	0.07
678.417	0.07
678.739	0.07
679.059	0.07
679.38	0.07
679.701	0.07
680.022	0.07
680.343	0.07
680.664	0.07
680.984	0.07
681.305	0.07
681.625	0.07
681.946	0.07
682.266	0.07
682.587	0.07
682.907	0.07
683.228	0.07
683.548	0.07
683.868	0.06
684.188	0.06
684.508	0.07
684.829	0.07
685.149	0.07
685.469	0.06
685.789	0.06
686.108	0.06
686.428	0.06
686.748	0.06
687.068	0.06
687.387	0.06
687.707	0.06
688.027	0.06
688.346	0.06
688.666	0.06
688.985	0.07
689.305	0.07
689.624	0.07
689.943	0.08
690.263	0.08
690.582	0.09
690.901	0.09
691.22	0.09
691.539	0.09
691.858	0.09
692.177	0.09
692.496	0.08
692.815	0.08
693.134	0.07
693.452	0.07
693.771	0.07
694.09	0.06
694.408	0.06
694.727	0.06
695.045	0.06
695.364	0.06
695.682	0.07
696.001	0.07
696.319	0.07
696.637	0.07
696.956	0.07
697.274	0.07
697.592	0.07
697.91	0.06
698.228	0.06
698.546	0.05
698.864	0.05
699.182	0.05
699.499	0.05
699.817	0.04
700.135	0.04
700.453	0.04
700.77	0.04
701.088	0.04
701.405	0.04
701.723	0.04
702.04	0.04
702.358	0.04
702.675	0.04
702.992	0.04
703.31	0.04
703.627	0.04
703.944	0.04
704.261	0.04
704.578	0.04
704.895	0.04
705.212	0.04
705.529	0.04
705.846	0.04
706.162	0.04
706.479	0.04
706.796	0.05
707.112	0.05
707.429	0.06
707.746	0.07
708.062	0.07
708.378	0.09
708.695	0.1
709.011	0.12
709.327	0.13
709.644	0.14
709.96	0.15
710.276	0.16
710.592	0.17
710.908	0.18
711.224	0.19
711.54	0.19
711.856	0.18
712.172	0.18
712.488	0.16
712.803	0.16
713.119	0.16
713.435	0.15
713.75	0.15
714.066	0.14
714.381	0.14
714.697	0.14
715.012	0.13
715.327	0.14
715.643	0.13
715.958	0.13
716.273	0.12
716.588	0.12
716.903	0.11
717.218	0.09
717.533	0.08
717.848	0.06
718.163	0.05
718.478	0.04
718.793	0.03
719.108	0.03
719.422	0.02
719.737	0.03
720.052	0.03
720.366	0.03
720.681	0.03
720.995	0.03
721.309	0.03
721.624	0.03
721.938	0.03
722.252	0.02
722.566	0.02
722.881	0.02
723.195	0.02
723.509	0.02
723.823	0.02
724.137	0.02
724.45	0.02
724.764	0.02
725.078	0.02
725.392	0.02
725.706	0.02
726.019	0.02
726.333	0.02
726.646	0.02
726.96	0.02
727.273	0.02
727.587	0.02
727.9	0.01
728.213	0.01
728.526	0.02
728.84	0.02
729.153	0.02
729.466	0.02
729.779	0.01
730.092	0.01
730.405	0.01
730.718	0.01
731.03	0.01
731.343	0.01
731.656	0.01
731.969	0.01
732.281	0.01
732.594	0
732.906	0
733.219	0
733.531	0
733.844	0.01
734.156	0.01
734.468	0.01
734.78	0.02
735.093	0.02
735.405	0.02
735.717	0.02
736.029	0.02
736.341	0.02
736.653	0.02
736.965	0.02
737.276	0.02
737.588	0.02
737.9	0.02
738.211	0.02
738.523	0.02
738.835	0.02
739.146	0.02
739.458	0.02
739.769	0.02
740.08	0.01
740.392	0.01
740.703	0.01
741.014	0.01
741.325	0.01
741.636	0.01
741.947	0
742.258	0
742.569	0
742.88	-0
743.191	-0
743.502	-0
743.813	-0
744.123	-0
744.434	-0
744.745	-0.01
745.055	-0.01
745.366	-0
745.676	-0
745.987	-0
746.297	0
746.607	0
746.917	0.01
747.228	0.01
747.538	0.01
747.848	0.01
748.158	0.01
748.468	0.02
748.778	0.02
749.088	0.01
749.397	0.01
749.707	0.02
750.017	0.02
750.327	0.02
750.636	0.02
750.946	0.02
751.255	0.02
751.565	0.02
751.874	0.01
752.184	0.01
752.493	0.01
752.802	0.01
753.111	0.01
753.421	0.01
753.73	0.01
754.039	0.01
754.348	0.01
754.657	0.01
754.966	0.01
755.274	0.01
755.583	0.01
755.892	0.01
756.201	0.01
756.509	0.01
756.818	0.01
757.127	0.01
757.435	0.01
757.743	0.01
758.052	0.01
758.36	0.01
758.668	0.01
758.977	0.02
759.285	0.02
759.593	0.01
759.901	0.02
760.209	0.02
760.517	0.02
760.825	0.02
761.133	0.02
761.441	0.01
761.749	0.01
762.056	0
762.364	-0.01
762.672	-0.01
762.979	-0
763.287	-0.01
763.594	-0
763.902	-0.01
764.209	-0.01
764.516	-0
764.823	0
765.131	0.01
765.438	0.01
765.745	0.02
766.052	0.02
766.359	0.02
766.666	0.02
766.973	0.02
767.28	0.02
767.587	0.02
767.893	0.02
768.2	0.02
768.507	0.01
768.813	0.01
769.12	0.01
769.426	0.02
769.733	0.02
770.039	0.02
770.345	0.02
770.652	0.02
770.958	0.01
771.264	0.01
771.57	0.01
771.876	0.01
772.182	0.01
772.488	0.01
772.794	0.01
773.1	0.01
773.406	0.01
773.712	0
774.017	0.01
774.323	0.01
774.628	0.01
774.934	0.01
775.24	0.01
775.545	0.01
775.85	0.01
776.156	0.01
776.461	0
776.766	0.01
777.071	0.01
777.377	0.01
777.682	0.01
777.987	0.01
778.292	0.01
778.597	0.01
778.901	0.01
779.206	0.01
779.511	0.01
779.816	0.01
780.12	0.01
780.425	0
780.73	0
781.034	-0
781.339	0
781.643	0
781.947	0.01
782.252	0.01
782.556	0.02
782.86	0.02
783.164	0.02
783.468	0.01
783.772	0.02
784.076	0.02
784.38	0.02
784.684	0.01
784.988	0.01
785.292	0.01
785.595	0.01
785.899	-0.01
786.203	-0.01
786.506	-0.01
786.81	-0
787.113	-0.01
787.417	-0.01
787.72	-0.01
788.023	-0.01
788.327	-0
788.63	0
788.933	-0
789.236	0
789.539	0
789.842	-0.01
790.145	0
790.448	0.01
790.751	0.02
791.054	0.03
791.356	0.04
791.659	0.02
791.962	0.02
792.264	0.02
792.567	0.02
792.869	0.02
793.172	0.03
793.474	0.03
793.776	0.02
794.078	0.02
794.381	0.01
794.683	0.01
794.985	-0
795.287	-0.01
795.589	0
795.891	0
796.193	0
796.495	0
796.796	-0.01
797.098	-0.01
797.4	-0.01
797.701	-0.01
798.003	-0.01
798.304	0.01
798.606	0
798.907	-0.01
799.209	-0.01
799.51	-0.02
799.811	-0.02
800.112	-0
800.414	-0
800.715	-0.01
801.016	-0.01
801.317	-0.01
801.618	-0.02
801.919	-0.01
802.219	0
802.52	0.01
802.821	0.01
803.122	0.01
803.422	0.01
803.723	0.01
804.023	0.01
804.324	0.03
804.624	0.03
804.924	0.03
805.225	0.02
805.525	0.03
805.825	0.01
806.125	0.01
806.425	0.01
806.725	0.01
807.025	-0.01
807.325	-0.01
807.625	-0.01
807.925	-0.02
808.225	-0
808.525	-0.01
808.824	0.01
809.124	0.03
809.423	0.03
809.723	0.02
810.022	0.02
810.322	0.04
810.621	0.05
810.92	0.05
811.22	0.07
811.519	0.06
811.818	0.07
812.117	0.05
812.416	0.07
812.715	0.05
813.014	0.08
813.313	0.08
813.612	0.08
813.91	0.07
814.209	0.08
814.508	0.06
814.806	0.07
815.105	0.08
815.403	0.06
815.702	0.03
816	0.03
816.298	0.03
816.597	0.01
816.895	0.02
817.193	0.03
817.491	0.03
817.789	0.04
818.087	0.04
818.385	0.02
818.683	0.04
818.981	0.06
819.279	0.08
819.577	0.07
819.874	0.09
820.172	0.08
820.469	0.07
820.767	0.08
821.064	0.09
821.362	0.08
821.659	0.07
821.957	0.08
822.254	0.07
822.551	0.07
822.848	0.06
823.145	0.02
823.442	0.01
823.739	-0.02
824.036	-0
824.333	-0.01
824.63	0
824.927	-0.03
825.223	-0.03
825.52	-0.03
825.817	-0.06
826.113	-0.05
826.41	-0.03
826.706	-0.02
827.003	0.02
827.299	-0.02
827.595	-0.01
827.892	0.01
828.188	0.04
828.484	0.04
828.78	0.03
829.076	0.04
829.372	0.04
829.668	0.05
829.964	0.04
830.26	0.03
830.555	0.03
830.851	-0.02
831.147	-0.03
831.442	-0.06
831.738	-0.06
832.033	-0.06
832.329	-0.05
832.624	-0.01
832.919	-0.02
833.215	0
833.51	-0.02
833.805	-0.01
834.1	0.05
834.395	0.04
834.69	0.05
834.985	0.05
835.28	0.03
835.575	0.02
835.87	0.01
836.164	-0.01
836.459	-0.02
836.754	0
837.048	-0.01
837.343	-0.06
837.637	-0.06
837.932	-0.06
838.226	-0.03
838.52	0.02
838.814	0.04
839.109	0.01
839.403	0.01
839.697	0.03
839.991	0.04
840.285	0.05
840.579	0.08
840.873	0.06
841.166	0.07
841.46	0.04
841.754	0
842.047	-0.05
842.341	-0.05
842.635	-0.03
842.928	-0.06
843.222	-0.03
843.515	-0.02
843.808	-0.01
844.101	0.01
844.395	-0.01
844.688	-0.02
844.981	0.04
845.274	0.02
845.567	0
845.86	-0.07
846.153	-0.05
846.446	-0.08
846.738	-0.06
847.031	-0.03
847.324	-0.03
847.616	-0.05
847.909	0
848.201	-0.06
848.494	-0.02
848.786	0.07
849.079	0.1
849.371	0.08
849.663	0.06
849.955	0.02
850.247	-0.01
850.539	-0.09
850.831	-0.05
851.123	-0.13
851.415	-0.06
851.707	-0.02
851.999	-0.02
852.291	0.03
852.582	0.1
852.874	0.11
853.166	0.11
853.457	0.09
853.749	0.12
854.04	0.18
854.331	0.18
854.623	0.05
854.914	0
855.205	-0.07
855.496	-0.1
855.787	-0.18
856.078	-0.15
856.369	-0.13
856.66	-0.07
856.951	0.04
857.242	-0.08
857.533	0
857.823	0.08
858.114	0.03
858.404	0.06
858.695	-0.01
858.985	0.04
859.276	-0.06
859.566	-0.11
859.857	-0.13
860.147	-0.04
860.437	0.01
860.727	0.02
861.017	0.02
861.307	0.08
861.597	-0.05
861.887	0.03
862.177	-0.01
862.467	0.15
862.757	0.18
863.046	0.1
863.336	-0.01
863.626	-0.08
863.915	-0.08
864.205	-0.06
864.494	0.06
864.783	0.23
865.073	0.15
865.362	0.08
865.651	-0.15
865.94	-0.11
866.229	-0.02
866.518	-0.03
866.807	0.1
867.096	0.03
867.385	0.09
867.674	-0.11
867.963	-0.21
868.252	-0.19
868.54	0.01
868.829	0.2
869.117	0.28
869.406	0.23
869.694	0.18
869.983	0.14
870.271	0.19
870.559	0.1
