Data from kielMoonTest_AbsoluteIrradiance__0__00.txt Node

Date: Fri Jul 22 16:45:33 EDT 2022
User: enochs
Spectrometer: FLMS17410
Trigger mode: 0
Integration Time (sec): 1.667200E-1
Scans to average: 5
Electric dark correction enabled: true
Nonlinearity correction enabled: true
Boxcar width: 5
XAxis mode: Wavelengths
Number of Pixels in Spectrum: 2048
>>>>>Begin Spectral Data<<<<<
179.501	0
179.881	0
180.261	0
180.64	0
181.02	0
181.399	0
181.779	0
182.158	0
182.537	0
182.917	0
183.296	-0
183.675	-0
184.055	0
184.434	0
184.813	-0
185.192	-0
185.571	0
185.95	0
186.329	0
186.708	0
187.087	0
187.466	0
187.845	0
188.224	0
188.603	0
188.982	0
189.361	0
189.739	0
190.118	0
190.497	0
190.875	0
191.254	0
191.632	0
192.011	0
192.39	0
192.768	0
193.146	0
193.525	0
193.903	0
194.282	0
194.66	0
195.038	0
195.416	0
195.794	-0
196.173	0
196.551	0
196.929	0
197.307	0
197.685	0
198.063	0
198.441	0
198.819	0
199.197	0
199.575	0
199.952	0
200.33	1.99
200.708	1.67
201.086	1.87
201.463	1.8
201.841	2.04
202.218	1.86
202.596	1.33
202.974	0.69
203.351	0.82
203.729	0.88
204.106	0.58
204.483	0.93
204.861	0.69
205.238	0.67
205.615	0.79
205.993	0.59
206.37	0.61
206.747	0.59
207.124	0.66
207.501	0.63
207.878	0.44
208.255	0.5
208.632	0.38
209.009	0.36
209.386	0.33
209.763	0.31
210.14	0.22
210.517	0.27
210.894	0.28
211.271	0.34
211.647	0.31
212.024	0.27
212.401	0.19
212.777	0.13
213.154	0.21
213.531	0.18
213.907	0.19
214.284	0.23
214.66	0.18
215.036	0.19
215.413	0.17
215.789	0.18
216.166	0.25
216.542	0.24
216.918	0.23
217.294	0.16
217.67	0.19
218.047	0.12
218.423	0.1
218.799	0.1
219.175	0.09
219.551	0.11
219.927	0.08
220.303	0.04
220.679	0.06
221.054	0.04
221.43	0.1
221.806	0.06
222.182	0.09
222.558	0.13
222.933	0.1
223.309	0.12
223.685	0.1
224.06	0.11
224.436	0.11
224.811	0.13
225.187	0.11
225.562	0.1
225.938	0.14
226.313	0.11
226.688	0.06
227.064	0.04
227.439	0.01
227.814	-0.01
228.189	0
228.564	-0.02
228.94	-0.04
229.315	-0.05
229.69	-0.06
230.065	-0.06
230.44	-0.03
230.815	-0.01
231.19	0.01
231.564	0.01
231.939	0.03
232.314	0.01
232.689	0.04
233.064	0.02
233.438	0.05
233.813	0.03
234.188	0.01
234.562	-0.01
234.937	-0.02
235.311	-0.02
235.686	0.02
236.06	-0.01
236.435	-0.02
236.809	-0.03
237.183	-0
237.558	-0.01
237.932	0.01
238.306	0.02
238.68	0.03
239.055	0.05
239.429	0.06
239.803	0.02
240.177	0.03
240.551	0.03
240.925	0.03
241.299	0.03
241.673	0.03
242.047	0.03
242.42	0.03
242.794	0.04
243.168	0.03
243.542	0.03
243.915	0.05
244.289	0.04
244.663	0.03
245.036	0.04
245.41	0.04
245.783	0.03
246.157	0.02
246.53	0.02
246.904	0.01
247.277	-0
247.651	-0.01
248.024	-0.01
248.397	-0.01
248.77	0.01
249.144	0
249.517	0.01
249.89	0.01
250.263	0.02
250.636	0.03
251.009	0.03
251.382	0.03
251.755	0.03
252.128	0.03
252.501	0.04
252.874	0.03
253.246	0.04
253.619	0.04
253.992	0.04
254.365	0.04
254.737	0.04
255.11	0.04
255.483	0.04
255.855	0.04
256.228	0.04
256.6	0.04
256.973	0.04
257.345	0.04
257.717	0.04
258.09	0.03
258.462	0.03
258.834	0.03
259.206	0.02
259.579	0.02
259.951	0.03
260.323	0.02
260.695	0.02
261.067	0.02
261.439	0.02
261.811	0.02
262.183	0.02
262.555	0.02
262.927	0.02
263.299	0.02
263.67	0.02
264.042	0.02
264.414	0.02
264.786	0.02
265.157	0.01
265.529	0.01
265.9	0.01
266.272	0.02
266.643	0.02
267.015	0.02
267.386	0.02
267.758	0.02
268.129	0.02
268.5	0.02
268.872	0.02
269.243	0.02
269.614	0.02
269.985	0.02
270.357	0.02
270.728	0.02
271.099	0.02
271.47	0.02
271.841	0.01
272.212	0.01
272.583	0.01
272.953	0.01
273.324	0.01
273.695	0.01
274.066	0
274.437	0
274.807	0
275.178	0
275.549	0
275.919	-0
276.29	-0.01
276.66	-0
277.031	-0
277.401	-0
277.772	-0
278.142	0
278.512	0
278.883	0
279.253	0.01
279.623	0.01
279.993	0.01
280.364	0.02
280.734	0.01
281.104	0.01
281.474	0.01
281.844	0.01
282.214	0.01
282.584	0.01
282.954	0.01
283.323	0.01
283.693	0
284.063	-0
284.433	-0
284.802	-0.01
285.172	-0.01
285.542	-0.01
285.911	-0.01
286.281	-0.01
286.65	-0.01
287.02	-0.01
287.389	-0.01
287.759	-0.01
288.128	-0.01
288.498	-0.01
288.867	-0.01
289.236	-0.01
289.605	-0.01
289.975	-0
290.344	-0
290.713	-0
291.082	-0
291.451	0
291.82	0
292.189	0
292.558	0.01
292.927	-0
293.296	-0
293.664	0
294.033	0
294.402	0
294.771	-0
295.139	-0
295.508	-0
295.877	-0
296.245	-0
296.614	-0
296.982	0
297.351	0
297.719	0
298.087	0.01
298.456	0
298.824	0
299.192	0
299.561	0.01
299.929	0.01
300.297	0.01
300.665	0.01
301.033	0.01
301.401	0.01
301.769	0
302.137	0
302.505	0
302.873	0
303.241	0
303.609	0
303.976	0
304.344	0
304.712	0.01
305.079	0.01
305.447	0.01
305.815	0.01
306.182	0.01
306.55	0.01
306.917	0.02
307.285	0.01
307.652	0.01
308.019	0.01
308.387	0.01
308.754	0.01
309.121	0.01
309.489	0.01
309.856	0.01
310.223	0.01
310.59	0.01
310.957	0.01
311.324	0.01
311.691	0.01
312.058	0.01
312.425	0.01
312.792	0.01
313.159	0.01
313.525	0.01
313.892	0.01
314.259	0.01
314.626	0.01
314.992	0.01
315.359	0
315.725	-0
316.092	0
316.459	0
316.825	0
317.191	-0
317.558	-0
317.924	-0.01
318.29	-0
318.657	-0
319.023	-0
319.389	-0
319.755	0
320.121	0
320.488	0
320.854	0
321.22	0
321.586	0
321.952	0
322.317	0.01
322.683	0.01
323.049	0.01
323.415	0.01
323.781	0.01
324.146	0
324.512	0
324.878	0
325.243	0.01
325.609	0.01
325.974	0.01
326.34	0.01
326.705	0
327.071	0.01
327.436	0
327.801	0
328.167	0.01
328.532	0.01
328.897	0.01
329.262	0.01
329.627	0.01
329.992	0.01
330.357	0.01
330.722	0.01
331.087	0.01
331.452	0.02
331.817	0.01
332.182	0.01
332.547	0.01
332.912	0.01
333.277	0.01
333.641	0.01
334.006	0.01
334.371	0.01
334.735	0.01
335.1	0.01
335.464	0.01
335.829	0
336.193	0
336.558	0
336.922	0
337.286	0
337.651	0
338.015	0
338.379	0
338.743	0
339.107	0
339.471	0
339.836	0
340.2	0
340.564	0
340.927	0
341.291	0
341.655	0
342.019	0
342.383	-0
342.747	-0
343.11	-0
343.474	-0
343.838	-0
344.201	-0
344.565	-0
344.928	-0
345.292	0
345.655	0
346.019	0
346.382	0
346.745	0.01
347.109	0.01
347.472	0.01
347.835	0.01
348.198	0.01
348.561	0.01
348.925	0.01
349.288	0.01
349.651	0
350.014	0
350.377	0
350.739	0
351.102	0
351.465	0
351.828	0
352.191	0
352.553	0
352.916	0
353.279	0
353.641	0
354.004	0
354.366	0
354.729	0
355.091	0
355.454	0
355.816	0
356.178	0
356.541	0
356.903	0
357.265	0
357.627	0
357.989	0
358.351	0
358.714	0
359.076	0.01
359.437	0.01
359.799	0.01
360.161	0.01
360.523	0.01
360.885	0
361.247	0
361.608	0
361.97	0
362.332	0
362.693	0.01
363.055	0
363.417	0
363.778	0
364.14	0
364.501	0
364.862	0
365.224	0.01
365.585	0.01
365.946	0.01
366.307	0.01
366.669	0.01
367.03	0
367.391	0
367.752	0
368.113	0.01
368.474	0.01
368.835	0.01
369.196	0.01
369.557	0
369.918	0
370.278	0
370.639	0.01
371	0.01
371.361	0.01
371.721	0.01
372.082	0
372.442	0
372.803	0
373.163	0
373.524	0
373.884	0
374.245	0
374.605	0
374.965	0
375.325	0
375.686	0
376.046	0
376.406	0
376.766	0
377.126	0
377.486	0
377.846	0
378.206	-0
378.566	-0
378.926	-0
379.285	-0
379.645	-0
380.005	-0
380.365	-0
380.724	-0
381.084	-0
381.443	-0
381.803	0
382.163	0
382.522	0
382.881	0
383.241	0
383.6	0
383.959	0
384.319	0
384.678	0
385.037	0
385.396	0
385.755	0
386.114	0
386.473	0
386.832	0.01
387.191	0.01
387.55	0.01
387.909	0.01
388.268	0.01
388.627	0.01
388.985	0.01
389.344	0.01
389.703	0.01
390.061	0.01
390.42	0.01
390.778	0.01
391.137	0.01
391.495	0.01
391.854	0
392.212	0
392.57	0
392.929	0
393.287	0.01
393.645	0.01
394.003	0.01
394.362	0.01
394.72	0
395.078	0.01
395.436	0
395.794	0.01
396.152	0.01
396.51	0.01
396.867	0.01
397.225	0.01
397.583	0.01
397.941	0.01
398.298	0.01
398.656	0.01
399.014	0.01
399.371	0.01
399.729	0.01
400.086	0.01
400.444	0.01
400.801	0.01
401.159	0.01
401.516	0.01
401.873	0.01
402.23	0.01
402.588	0.01
402.945	0.01
403.302	0.01
403.659	0.02
404.016	0.02
404.373	0.02
404.73	0.02
405.087	0.02
405.444	0.02
405.801	0.03
406.158	0.06
406.514	0.09
406.871	0.13
407.228	0.16
407.584	0.18
407.941	0.19
408.298	0.2
408.654	0.2
409.011	0.21
409.367	0.21
409.723	0.2
410.08	0.18
410.436	0.14
410.792	0.11
411.149	0.08
411.505	0.07
411.861	0.06
412.217	0.05
412.573	0.05
412.929	0.05
413.285	0.05
413.641	0.05
413.997	0.05
414.353	0.05
414.709	0.05
415.065	0.05
415.42	0.05
415.776	0.05
416.132	0.05
416.487	0.05
416.843	0.05
417.199	0.05
417.554	0.05
417.91	0.06
418.265	0.06
418.62	0.06
418.976	0.06
419.331	0.06
419.686	0.07
420.042	0.07
420.397	0.07
420.752	0.07
421.107	0.08
421.462	0.08
421.817	0.08
422.172	0.08
422.527	0.09
422.882	0.09
423.237	0.09
423.592	0.09
423.946	0.09
424.301	0.1
424.656	0.1
425.01	0.1
425.365	0.1
425.72	0.1
426.074	0.1
426.429	0.1
426.783	0.1
427.137	0.11
427.492	0.11
427.846	0.11
428.2	0.11
428.555	0.11
428.909	0.11
429.263	0.11
429.617	0.11
429.971	0.11
430.325	0.11
430.679	0.11
431.033	0.11
431.387	0.11
431.741	0.11
432.095	0.11
432.449	0.11
432.802	0.11
433.156	0.11
433.51	0.11
433.863	0.11
434.217	0.11
434.571	0.11
434.924	0.12
435.278	0.12
435.631	0.12
435.984	0.12
436.338	0.13
436.691	0.14
437.044	0.2
437.397	0.3
437.751	0.43
438.104	0.56
438.457	0.64
438.81	0.69
439.163	0.72
439.516	0.75
439.869	0.76
440.222	0.76
440.575	0.75
440.927	0.71
441.28	0.61
441.633	0.48
441.986	0.37
442.338	0.29
442.691	0.24
443.043	0.21
443.396	0.19
443.748	0.18
444.101	0.18
444.453	0.18
444.805	0.19
445.158	0.19
445.51	0.19
445.862	0.2
446.214	0.2
446.567	0.21
446.919	0.21
447.271	0.22
447.623	0.22
447.975	0.23
448.327	0.23
448.679	0.23
449.03	0.24
449.382	0.24
449.734	0.25
450.086	0.25
450.437	0.26
450.789	0.26
451.141	0.27
451.492	0.27
451.844	0.28
452.195	0.28
452.547	0.28
452.898	0.29
453.249	0.29
453.601	0.29
453.952	0.29
454.303	0.29
454.654	0.29
455.005	0.29
455.357	0.29
455.708	0.28
456.059	0.28
456.41	0.28
456.76	0.27
457.111	0.27
457.462	0.27
457.813	0.27
458.164	0.26
458.515	0.26
458.865	0.26
459.216	0.25
459.566	0.25
459.917	0.25
460.267	0.24
460.618	0.24
460.968	0.23
461.319	0.23
461.669	0.22
462.019	0.22
462.37	0.22
462.72	0.21
463.07	0.21
463.42	0.21
463.77	0.21
464.12	0.2
464.47	0.2
464.82	0.2
465.17	0.2
465.52	0.2
465.87	0.19
466.22	0.19
466.569	0.19
466.919	0.19
467.269	0.19
467.618	0.19
467.968	0.19
468.318	0.19
468.667	0.19
469.017	0.19
469.366	0.19
469.715	0.18
470.065	0.18
470.414	0.18
470.763	0.18
471.112	0.18
471.462	0.18
471.811	0.18
472.16	0.18
472.509	0.18
472.858	0.18
473.207	0.18
473.556	0.18
473.905	0.18
474.253	0.18
474.602	0.18
474.951	0.18
475.3	0.18
475.648	0.18
475.997	0.18
476.345	0.19
476.694	0.18
477.042	0.18
477.391	0.18
477.739	0.18
478.088	0.18
478.436	0.18
478.784	0.18
479.132	0.18
479.481	0.18
479.829	0.18
480.177	0.18
480.525	0.18
480.873	0.18
481.221	0.18
481.569	0.18
481.917	0.18
482.265	0.18
482.612	0.18
482.96	0.18
483.308	0.18
483.656	0.18
484.003	0.18
484.351	0.18
484.698	0.19
485.046	0.19
485.393	0.2
485.741	0.21
486.088	0.21
486.435	0.23
486.783	0.24
487.13	0.25
487.477	0.27
487.824	0.29
488.171	0.31
488.518	0.32
488.866	0.34
489.212	0.36
489.559	0.38
489.906	0.39
490.253	0.4
490.6	0.4
490.947	0.41
491.294	0.41
491.64	0.41
491.987	0.4
492.333	0.39
492.68	0.38
493.027	0.37
493.373	0.36
493.719	0.35
494.066	0.34
494.412	0.33
494.759	0.32
495.105	0.31
495.451	0.3
495.797	0.29
496.143	0.29
496.489	0.28
496.835	0.27
497.181	0.26
497.527	0.25
497.873	0.24
498.219	0.23
498.565	0.23
498.911	0.22
499.257	0.21
499.602	0.2
499.948	0.2
500.294	0.19
500.639	0.18
500.985	0.18
501.33	0.17
501.676	0.16
502.021	0.16
502.366	0.15
502.712	0.15
503.057	0.14
503.402	0.13
503.747	0.13
504.092	0.12
504.438	0.11
504.783	0.11
505.128	0.1
505.473	0.1
505.817	0.1
506.162	0.09
506.507	0.09
506.852	0.08
507.197	0.08
507.541	0.08
507.886	0.08
508.231	0.07
508.575	0.07
508.92	0.07
509.264	0.07
509.609	0.07
509.953	0.06
510.297	0.06
510.642	0.06
510.986	0.06
511.33	0.06
511.674	0.06
512.019	0.06
512.363	0.06
512.707	0.06
513.051	0.06
513.395	0.06
513.739	0.06
514.083	0.06
514.426	0.06
514.77	0.06
515.114	0.06
515.458	0.06
515.801	0.06
516.145	0.06
516.488	0.05
516.832	0.05
517.175	0.06
517.519	0.06
517.862	0.05
518.206	0.05
518.549	0.05
518.892	0.05
519.235	0.05
519.579	0.05
519.922	0.05
520.265	0.05
520.608	0.05
520.951	0.05
521.294	0.05
521.637	0.05
521.98	0.05
522.323	0.05
522.665	0.05
523.008	0.05
523.351	0.05
523.693	0.05
524.036	0.05
524.379	0.05
524.721	0.05
525.064	0.05
525.406	0.05
525.748	0.05
526.091	0.05
526.433	0.05
526.775	0.05
527.118	0.05
527.46	0.05
527.802	0.05
528.144	0.05
528.486	0.05
528.828	0.06
529.17	0.06
529.512	0.06
529.854	0.06
530.195	0.06
530.537	0.06
530.879	0.06
531.221	0.06
531.562	0.06
531.904	0.06
532.245	0.06
532.587	0.06
532.928	0.06
533.27	0.06
533.611	0.06
533.953	0.06
534.294	0.06
534.635	0.06
534.976	0.06
535.317	0.07
535.659	0.07
536	0.07
536.341	0.08
536.682	0.08
537.023	0.08
537.363	0.08
537.704	0.09
538.045	0.09
538.386	0.1
538.727	0.1
539.067	0.11
539.408	0.12
539.748	0.14
540.089	0.15
540.429	0.17
540.77	0.19
541.11	0.22
541.451	0.25
541.791	0.29
542.131	0.33
542.471	0.4
542.812	0.48
543.152	0.58
543.492	0.7
543.832	0.82
544.172	0.95
544.512	1.07
544.852	1.18
545.192	1.28
545.531	1.37
545.871	1.45
546.211	1.52
546.551	1.56
546.89	1.58
547.23	1.61
547.57	1.67
547.909	1.75
548.248	1.82
548.588	1.86
548.927	1.87
549.267	1.87
549.606	1.85
549.945	1.82
550.284	1.79
550.623	1.74
550.963	1.65
551.302	1.51
551.641	1.34
551.98	1.19
552.319	1.06
552.657	0.96
552.996	0.87
553.335	0.79
553.674	0.72
554.013	0.66
554.351	0.6
554.69	0.55
555.028	0.5
555.367	0.46
555.705	0.42
556.044	0.39
556.382	0.36
556.721	0.33
557.059	0.3
557.397	0.27
557.735	0.25
558.074	0.22
558.412	0.2
558.75	0.19
559.088	0.17
559.426	0.16
559.764	0.14
560.102	0.13
560.439	0.12
560.777	0.11
561.115	0.11
561.453	0.1
561.79	0.1
562.128	0.09
562.466	0.09
562.803	0.08
563.141	0.08
563.478	0.08
563.816	0.08
564.153	0.07
564.49	0.07
564.827	0.07
565.165	0.07
565.502	0.07
565.839	0.07
566.176	0.06
566.513	0.06
566.85	0.06
567.187	0.06
567.524	0.06
567.861	0.06
568.198	0.06
568.534	0.06
568.871	0.06
569.208	0.06
569.544	0.05
569.881	0.05
570.218	0.05
570.554	0.05
570.891	0.05
571.227	0.05
571.563	0.05
571.9	0.05
572.236	0.05
572.572	0.05
572.908	0.05
573.244	0.05
573.581	0.05
573.917	0.05
574.253	0.05
574.588	0.05
574.924	0.05
575.26	0.05
575.596	0.05
575.932	0.04
576.268	0.04
576.603	0.05
576.939	0.05
577.274	0.05
577.61	0.05
577.946	0.05
578.281	0.07
578.616	0.09
578.952	0.11
579.287	0.13
579.622	0.14
579.958	0.16
580.293	0.17
580.628	0.2
580.963	0.22
581.298	0.24
581.633	0.26
581.968	0.27
582.303	0.27
582.638	0.27
582.973	0.27
583.307	0.28
583.642	0.29
583.977	0.29
584.311	0.29
584.646	0.29
584.98	0.3
585.315	0.3
585.649	0.31
585.984	0.32
586.318	0.33
586.652	0.34
586.987	0.35
587.321	0.35
587.655	0.36
587.989	0.36
588.323	0.36
588.657	0.37
588.991	0.38
589.325	0.39
589.659	0.4
589.993	0.4
590.327	0.4
590.661	0.39
590.994	0.39
591.328	0.38
591.662	0.38
591.995	0.37
592.329	0.35
592.662	0.33
592.996	0.31
593.329	0.29
593.662	0.27
593.996	0.27
594.329	0.26
594.662	0.27
594.995	0.28
595.328	0.28
595.661	0.29
595.994	0.29
596.327	0.29
596.66	0.29
596.993	0.29
597.326	0.28
597.659	0.27
597.992	0.26
598.324	0.24
598.657	0.22
598.99	0.21
599.322	0.19
599.655	0.18
599.987	0.17
600.32	0.16
600.652	0.16
600.984	0.17
601.317	0.17
601.649	0.18
601.981	0.18
602.313	0.19
602.645	0.19
602.977	0.19
603.309	0.19
603.641	0.19
603.973	0.19
604.305	0.18
604.637	0.17
604.969	0.16
605.3	0.15
605.632	0.14
605.964	0.13
606.295	0.12
606.627	0.12
606.958	0.11
607.29	0.11
607.621	0.11
607.952	0.11
608.284	0.11
608.615	0.11
608.946	0.11
609.277	0.12
609.609	0.13
609.94	0.14
610.271	0.15
610.602	0.16
610.933	0.18
611.263	0.21
611.594	0.25
611.925	0.3
612.256	0.4
612.587	0.56
612.917	0.77
613.248	1.01
613.578	1.23
613.909	1.43
614.239	1.59
614.57	1.73
614.9	1.85
615.23	1.93
615.561	1.99
615.891	1.99
616.221	1.92
616.551	1.78
616.881	1.61
617.211	1.44
617.541	1.28
617.871	1.15
618.201	1.03
618.531	0.92
618.861	0.83
619.191	0.74
619.52	0.66
619.85	0.58
620.18	0.52
620.509	0.46
620.839	0.42
621.168	0.38
621.498	0.35
621.827	0.32
622.157	0.31
622.486	0.29
622.815	0.29
623.144	0.28
623.473	0.28
623.803	0.28
624.132	0.28
624.461	0.29
624.79	0.29
625.119	0.29
625.447	0.29
625.776	0.29
626.105	0.3
626.434	0.3
626.762	0.3
627.091	0.3
627.42	0.3
627.748	0.3
628.077	0.3
628.405	0.3
628.734	0.3
629.062	0.3
629.39	0.3
629.719	0.29
630.047	0.29
630.375	0.29
630.703	0.28
631.031	0.28
631.359	0.27
631.687	0.27
632.015	0.27
632.343	0.28
632.671	0.29
632.999	0.3
633.326	0.32
633.654	0.32
633.982	0.33
634.309	0.33
634.637	0.32
634.964	0.32
635.292	0.3
635.619	0.29
635.947	0.26
636.274	0.23
636.601	0.2
636.928	0.17
637.256	0.15
637.583	0.13
637.91	0.11
638.237	0.1
638.564	0.09
638.891	0.08
639.218	0.07
639.544	0.07
639.871	0.07
640.198	0.07
640.525	0.07
640.851	0.06
641.178	0.06
641.504	0.06
641.831	0.06
642.157	0.06
642.484	0.06
642.81	0.06
643.137	0.06
643.463	0.05
643.789	0.05
644.115	0.05
644.441	0.05
644.767	0.05
645.093	0.05
645.419	0.06
645.745	0.06
646.071	0.06
646.397	0.06
646.723	0.06
647.049	0.06
647.374	0.06
647.7	0.06
648.026	0.06
648.351	0.06
648.677	0.06
649.002	0.06
649.328	0.06
649.653	0.06
649.978	0.07
650.303	0.07
650.629	0.07
650.954	0.07
651.279	0.07
651.604	0.07
651.929	0.08
652.254	0.09
652.579	0.1
652.904	0.1
653.229	0.11
653.554	0.12
653.878	0.12
654.203	0.13
654.528	0.13
654.852	0.13
655.177	0.13
655.501	0.13
655.826	0.12
656.15	0.12
656.474	0.11
656.799	0.1
657.123	0.1
657.447	0.1
657.771	0.09
658.096	0.09
658.42	0.09
658.744	0.08
659.068	0.08
659.392	0.08
659.715	0.08
660.039	0.08
660.363	0.08
660.687	0.08
661.01	0.08
661.334	0.08
661.658	0.08
661.981	0.07
662.305	0.07
662.628	0.07
662.952	0.07
663.275	0.07
663.598	0.07
663.921	0.07
664.245	0.08
664.568	0.08
664.891	0.09
665.214	0.09
665.537	0.09
665.86	0.09
666.183	0.09
666.506	0.09
666.828	0.09
667.151	0.09
667.474	0.09
667.797	0.08
668.119	0.08
668.442	0.07
668.764	0.07
669.087	0.06
669.409	0.06
669.732	0.06
670.054	0.06
670.376	0.06
670.698	0.05
671.021	0.05
671.343	0.05
671.665	0.05
671.987	0.05
672.309	0.05
672.631	0.05
672.953	0.05
673.275	0.05
673.596	0.05
673.918	0.05
674.24	0.05
674.561	0.05
674.883	0.05
675.205	0.04
675.526	0.04
675.848	0.04
676.169	0.04
676.49	0.04
676.812	0.04
677.133	0.04
677.454	0.03
677.775	0.03
678.096	0.03
678.417	0.03
678.739	0.03
679.059	0.03
679.38	0.03
679.701	0.03
680.022	0.03
680.343	0.03
680.664	0.03
680.984	0.03
681.305	0.03
681.625	0.03
681.946	0.03
682.266	0.03
682.587	0.03
682.907	0.03
683.228	0.03
683.548	0.03
683.868	0.03
684.188	0.03
684.508	0.04
684.829	0.04
685.149	0.04
685.469	0.04
685.789	0.04
686.108	0.04
686.428	0.04
686.748	0.04
687.068	0.04
687.387	0.04
687.707	0.04
688.027	0.04
688.346	0.04
688.666	0.04
688.985	0.05
689.305	0.05
689.624	0.05
689.943	0.06
690.263	0.06
690.582	0.07
690.901	0.07
691.22	0.07
691.539	0.07
691.858	0.07
692.177	0.07
692.496	0.06
692.815	0.06
693.134	0.05
693.452	0.05
693.771	0.04
694.09	0.04
694.408	0.04
694.727	0.04
695.045	0.04
695.364	0.04
695.682	0.04
696.001	0.04
696.319	0.04
696.637	0.04
696.956	0.05
697.274	0.05
697.592	0.04
697.91	0.04
698.228	0.04
698.546	0.04
698.864	0.04
699.182	0.03
699.499	0.03
699.817	0.03
700.135	0.02
700.453	0.02
700.77	0.02
701.088	0.02
701.405	0.02
701.723	0.02
702.04	0.02
702.358	0.02
702.675	0.02
702.992	0.02
703.31	0.01
703.627	0.02
703.944	0.02
704.261	0.02
704.578	0.02
704.895	0.02
705.212	0.02
705.529	0.02
705.846	0.02
706.162	0.02
706.479	0.03
706.796	0.03
707.112	0.03
707.429	0.04
707.746	0.05
708.062	0.06
708.378	0.07
708.695	0.08
709.011	0.1
709.327	0.11
709.644	0.12
709.96	0.13
710.276	0.14
710.592	0.16
710.908	0.17
711.224	0.18
711.54	0.18
711.856	0.18
712.172	0.17
712.488	0.16
712.803	0.15
713.119	0.14
713.435	0.14
713.75	0.14
714.066	0.13
714.381	0.13
714.697	0.12
715.012	0.12
715.327	0.11
715.643	0.11
715.958	0.11
716.273	0.11
716.588	0.1
716.903	0.09
717.218	0.08
717.533	0.06
717.848	0.04
718.163	0.03
718.478	0.02
718.793	0.02
719.108	0.01
719.422	0.01
719.737	0.01
720.052	0.01
720.366	0.01
720.681	0.01
720.995	0.01
721.309	0.01
721.624	0.01
721.938	0.02
722.252	0.01
722.566	0.01
722.881	0.01
723.195	0.01
723.509	0.01
723.823	0.01
724.137	0.01
724.45	0.01
724.764	0.01
725.078	0.01
725.392	0
725.706	0.01
726.019	0.01
726.333	0.01
726.646	0.01
726.96	0.01
727.273	0.01
727.587	0.01
727.9	0.01
728.213	0.01
728.526	0.01
728.84	0.02
729.153	0.02
729.466	0.02
729.779	0.02
730.092	0.02
730.405	0.01
730.718	0.01
731.03	0.02
731.343	0.02
731.656	0.01
731.969	0.01
732.281	0.01
732.594	0.01
732.906	0
733.219	0
733.531	0.01
733.844	0.01
734.156	0.01
734.468	0.01
734.78	0.01
735.093	0.01
735.405	0.01
735.717	0.01
736.029	0.01
736.341	0.01
736.653	0.01
736.965	0.01
737.276	0.01
737.588	0.01
737.9	0.01
738.211	0.01
738.523	0.01
738.835	0.01
739.146	0.01
739.458	0.01
739.769	0.01
740.08	0.01
740.392	0.01
740.703	0.01
741.014	0.01
741.325	0.01
741.636	0.01
741.947	0.01
742.258	0.01
742.569	0.01
742.88	0
743.191	0
743.502	-0
743.813	-0
744.123	-0.01
744.434	-0
744.745	-0.01
745.055	-0.01
745.366	-0.01
745.676	-0
745.987	-0
746.297	0
746.607	0
746.917	0.01
747.228	0.01
747.538	0.01
747.848	0.01
748.158	0.01
748.468	0.01
748.778	0.01
749.088	0.01
749.397	0.01
749.707	0.01
750.017	0.01
750.327	0.01
750.636	0.01
750.946	0.01
751.255	0
751.565	0
751.874	0
752.184	0
752.493	0
752.802	0.01
753.111	0
753.421	0.01
753.73	0.01
754.039	0.01
754.348	0.01
754.657	0.01
754.966	0.01
755.274	0.01
755.583	0.01
755.892	0.01
756.201	0.01
756.509	0
756.818	0
757.127	0
757.435	0.01
757.743	0.01
758.052	0.01
758.36	0.01
758.668	0
758.977	0
759.285	0
759.593	0.01
759.901	0.01
760.209	0.01
760.517	0.02
760.825	0.02
761.133	0.02
761.441	0.02
761.749	0.02
762.056	0.02
762.364	0.02
762.672	0.02
762.979	0.02
763.287	0.02
763.594	0.02
763.902	0.01
764.209	0.01
764.516	0.01
764.823	0
765.131	0
765.438	0.01
765.745	0.01
766.052	0.01
766.359	0.01
766.666	0.01
766.973	0.01
767.28	0
767.587	0.01
767.893	0
768.2	0.01
768.507	0.01
768.813	0
769.12	0
769.426	0.01
769.733	0.01
770.039	0.01
770.345	0.01
770.652	0.01
770.958	0.01
771.264	0.01
771.57	0.01
771.876	0.01
772.182	0.01
772.488	0.01
772.794	0
773.1	0.01
773.406	0.01
773.712	0.01
774.017	0.01
774.323	0
774.628	-0
774.934	0
775.24	0.01
775.545	0
775.85	0.01
776.156	0.02
776.461	0.01
776.766	0.01
777.071	0
777.377	0
777.682	0.01
777.987	0.01
778.292	0.01
778.597	0.01
778.901	0.02
779.206	0.02
779.511	0.01
779.816	0.02
780.12	0.02
780.425	0.02
780.73	0.03
781.034	0.02
781.339	0.03
781.643	0.02
781.947	0.03
782.252	0.03
782.556	0.03
782.86	0.04
783.164	0.03
783.468	0.03
783.772	0.03
784.076	0.02
784.38	0.02
784.684	0.02
784.988	0.02
785.292	0.02
785.595	0.02
785.899	0
786.203	0.01
786.506	0.01
786.81	0.01
787.113	0.01
787.417	0.02
787.72	0.01
788.023	0.01
788.327	0.01
788.63	0.02
788.933	0.01
789.236	0.01
789.539	0.01
789.842	-0
790.145	0.01
790.448	0.01
790.751	0.01
791.054	0.02
791.356	0.02
791.659	0.02
791.962	0.01
792.264	0.01
792.567	-0
792.869	0
793.172	0.02
793.474	0.02
793.776	0.02
794.078	0.02
794.381	0.01
794.683	0.01
794.985	0
795.287	0.01
795.589	0.02
795.891	0.04
796.193	0.04
796.495	0.04
796.796	0.03
797.098	0.03
797.4	0.03
797.701	0.02
798.003	0.02
798.304	0.03
798.606	0.02
798.907	0.01
799.209	0.01
799.51	0
799.811	0.01
800.112	0.01
800.414	0.02
800.715	0.02
801.016	0.02
801.317	0.01
801.618	0
801.919	0
802.219	0.01
802.52	-0
802.821	-0.01
803.122	-0.01
803.422	-0.01
803.723	-0.02
804.023	-0
804.324	0.02
804.624	0.02
804.924	0.02
805.225	0.02
805.525	0.02
805.825	0.02
806.125	0.04
806.425	0.04
806.725	0.04
807.025	0.03
807.325	0
807.625	-0.01
807.925	-0.02
808.225	-0.01
808.525	-0.02
808.824	-0
809.124	0
809.423	-0
809.723	-0
810.022	0
810.322	0.01
810.621	0.04
810.92	0.05
811.22	0.06
811.519	0.06
811.818	0.08
812.117	0.07
812.416	0.09
812.715	0.07
813.014	0.08
813.313	0.08
813.612	0.07
813.91	0.08
814.209	0.08
814.508	0.06
814.806	0.06
815.105	0.06
815.403	0.05
815.702	0.04
816	0.04
816.298	0.03
816.597	0.04
816.895	0.05
817.193	0.06
817.491	0.07
817.789	0.08
818.087	0.08
818.385	0.07
818.683	0.06
818.981	0.06
819.279	0.08
819.577	0.1
819.874	0.1
820.172	0.06
820.469	0.03
820.767	0.02
821.064	0.03
821.362	0.04
821.659	0.03
821.957	0.05
822.254	0.05
822.551	0.05
822.848	0.03
823.145	0.01
823.442	0.03
823.739	0.01
824.036	0.04
824.333	0.02
824.63	0.03
824.927	0.02
825.223	0.02
825.52	0.02
825.817	0.01
826.113	0.01
826.41	0.04
826.706	0.05
827.003	0.1
827.299	0.07
827.595	0.07
827.892	0.05
828.188	0.06
828.484	0.09
828.78	0.08
829.076	0.09
829.372	0.08
829.668	0.12
829.964	0.11
830.26	0.1
830.555	0.1
830.851	0.08
831.147	0.1
831.442	0.1
831.738	0.08
832.033	0.07
832.329	0.07
832.624	0.07
832.919	0.01
833.215	0.03
833.51	-0.01
833.805	-0.02
834.1	0
834.395	-0.03
834.69	-0.02
834.985	-0.01
835.28	-0.03
835.575	-0.02
835.87	-0.02
836.164	-0.01
836.459	-0.04
836.754	-0.01
837.048	-0.01
837.343	-0.05
837.637	-0.03
837.932	-0.03
838.226	-0.03
838.52	0
838.814	0
839.109	-0.03
839.403	-0.02
839.697	-0.02
839.991	-0.02
840.285	-0.02
840.579	0.01
840.873	0.01
841.166	-0.01
841.46	-0.02
841.754	-0.01
842.047	-0.01
842.341	0.01
842.635	-0.01
842.928	-0.02
843.222	-0.03
843.515	-0.01
843.808	-0.02
844.101	0.01
844.395	0.02
844.688	-0
844.981	-0.01
845.274	-0.09
845.567	-0.09
845.86	-0.11
846.153	-0.11
846.446	-0.09
846.738	-0.06
847.031	-0.05
847.324	-0.05
847.616	-0.08
847.909	-0.05
848.201	-0.02
848.494	0.04
848.786	0.1
849.079	0.15
849.371	0.18
849.663	0.15
849.955	0.12
850.247	0.12
850.539	0.1
850.831	0.09
851.123	0.08
851.415	0.14
851.707	0.15
851.999	0.12
852.291	0.13
852.582	0.18
852.874	0.18
853.166	0.2
853.457	0.17
853.749	0.16
854.04	0.22
854.331	0.2
854.623	0.01
854.914	-0.04
855.205	-0.06
855.496	-0.02
855.787	-0.13
856.078	-0.12
856.369	-0.07
856.66	0.05
856.951	0.03
857.242	0.06
857.533	0.14
857.823	0.27
858.114	0.31
858.404	0.33
858.695	0.23
858.985	0.26
859.276	0.16
859.566	0.04
859.857	-0.06
860.147	0.1
860.437	0.08
860.727	0.09
861.017	0.12
861.307	0.09
861.597	0.05
861.887	0.13
862.177	0.15
862.467	0.31
862.757	0.36
863.046	0.36
863.336	0.36
863.626	0.28
863.915	0.2
864.205	0.11
864.494	0.2
864.783	0.28
865.073	0.23
865.362	0.14
865.651	-0.01
865.94	-0.04
866.229	0
866.518	-0.1
866.807	-0.08
867.096	-0.1
867.385	0.08
867.674	0.01
867.963	-0.08
868.252	0.01
868.54	0.13
868.829	0.28
869.117	0.33
869.406	0.32
869.694	0.28
869.983	0.31
870.271	0.37
870.559	0.16
